# Optical n & k TableODB values according to Palik
# Column Entries: wavelength [um], refractive index [1], extinction coefficient [1]
2.1600000E-01,1.2730009E+00,2.8740019E+00
2.1700000E-01,1.2861902E+00,2.8682574E+00
2.1800000E-01,1.3038738E+00,2.8625130E+00
2.1900000E-01,1.3263457E+00,2.8567686E+00
2.2000000E-01,1.3466229E+00,2.8513509E+00
2.2100000E-01,1.3561757E+00,2.8475297E+00
2.2200000E-01,1.3630010E+00,2.8449997E+00
2.2300000E-01,1.3680056E+00,2.8433315E+00
2.2400000E-01,1.3729920E+00,2.8420000E+00
2.2500000E-01,1.3779072E+00,2.8420000E+00
2.2600000E-01,1.3816166E+00,2.8436166E+00
2.2700000E-01,1.3844320E+00,2.8464320E+00
2.2800000E-01,1.3867918E+00,2.8492603E+00
2.2900000E-01,1.3844224E+00,2.8522220E+00
2.3000000E-01,1.3820705E+00,2.8575631E+00
2.3100000E-01,1.3797447E+00,2.8664786E+00
2.3200000E-01,1.3774189E+00,2.8753941E+00
2.3300000E-01,1.3741927E+00,2.8863577E+00
2.3400000E-01,1.3708739E+00,2.8980343E+00
2.3500000E-01,1.3690072E+00,2.9133407E+00
2.3600000E-01,1.3671406E+00,2.9286471E+00
2.3700000E-01,1.3655726E+00,2.9454796E+00
2.3800000E-01,1.3644737E+00,2.9647095E+00
2.3900000E-01,1.3644088E+00,2.9811961E+00
2.4000000E-01,1.3651274E+00,2.9956038E+00
2.4100000E-01,1.3658460E+00,3.0100114E+00
2.4200000E-01,1.3676611E+00,3.0379744E+00
2.4300000E-01,1.3697754E+00,3.0696361E+00
2.4400000E-01,1.3737058E+00,3.0955436E+00
2.4500000E-01,1.3778521E+00,3.1207672E+00
2.4600000E-01,1.3819985E+00,3.1459907E+00
2.4700000E-01,1.3880953E+00,3.1719050E+00
2.4800000E-01,1.3942415E+00,3.1978926E+00
2.4900000E-01,1.4018783E+00,3.2261153E+00
2.5000000E-01,1.4095150E+00,3.2543380E+00
2.5100000E-01,1.4171745E+00,3.2825818E+00
2.5200000E-01,1.4259601E+00,3.3118670E+00
2.5300000E-01,1.4347457E+00,3.3411522E+00
2.5400000E-01,1.4458351E+00,3.3720287E+00
2.5500000E-01,1.4569933E+00,3.4029527E+00
2.5600000E-01,1.4681514E+00,3.4338767E+00
2.5700000E-01,1.4809435E+00,3.4663586E+00
2.5800000E-01,1.4940600E+00,3.4991499E+00
2.5900000E-01,1.5082707E+00,3.5336069E+00
2.6000000E-01,1.5229513E+00,3.5687792E+00
2.6100000E-01,1.5376319E+00,3.6039514E+00
2.6200000E-01,1.5537262E+00,3.6404182E+00
2.6300000E-01,1.5716946E+00,3.6786011E+00
2.6400000E-01,1.5903627E+00,3.7175461E+00
2.6500000E-01,1.6117630E+00,3.7594673E+00
2.6600000E-01,1.6331634E+00,3.8013886E+00
2.6700000E-01,1.6545638E+00,3.8433099E+00
2.6800000E-01,1.6798109E+00,3.8888455E+00
2.6900000E-01,1.7060639E+00,3.9353262E+00
2.7000000E-01,1.7356735E+00,3.9846298E+00
2.7100000E-01,1.7690809E+00,4.0371271E+00
2.7200000E-01,1.8024883E+00,4.0896245E+00
2.7300000E-01,1.8358958E+00,4.1421219E+00
2.7400000E-01,1.8815983E+00,4.2030504E+00
2.7500000E-01,1.9285604E+00,4.2648426E+00
2.7600000E-01,1.9881648E+00,4.3286870E+00
2.7700000E-01,2.0614879E+00,4.3947583E+00
2.7800000E-01,2.1348109E+00,4.4608296E+00
2.7900000E-01,2.2081340E+00,4.5269010E+00
2.8000000E-01,2.3124019E+00,4.5805402E+00
2.8100000E-01,2.4266391E+00,4.6301742E+00
2.8200000E-01,2.5451792E+00,4.6681056E+00
2.8300000E-01,2.6791763E+00,4.6639984E+00
2.8400000E-01,2.8131733E+00,4.6598912E+00
2.8500000E-01,2.9471704E+00,4.6557840E+00
2.8600000E-01,3.0743676E+00,4.6353011E+00
2.8700000E-01,3.1872570E+00,4.5803616E+00
2.8800000E-01,3.3001464E+00,4.5254221E+00
2.8900000E-01,3.3860567E+00,4.4581287E+00
2.9000000E-01,3.4583568E+00,4.3846032E+00
2.9100000E-01,3.5306569E+00,4.3110777E+00
2.9200000E-01,3.6029570E+00,4.2375522E+00
2.9300000E-01,3.6565054E+00,4.1654458E+00
2.9400000E-01,3.6967221E+00,4.0943484E+00
2.9500000E-01,3.7369389E+00,4.0232509E+00
2.9600000E-01,3.7621937E+00,3.9617173E+00
2.9700000E-01,3.7836977E+00,3.9025812E+00
2.9800000E-01,3.8052018E+00,3.8434451E+00
2.9900000E-01,3.8267058E+00,3.7843090E+00
3.0000000E-01,3.8427094E+00,3.7306647E+00
3.0100000E-01,3.8536617E+00,3.6820636E+00
3.0200000E-01,3.8646141E+00,3.6334625E+00
3.0300000E-01,3.8726044E+00,3.5902376E+00
3.0400000E-01,3.8786163E+00,3.5506036E+00
3.0500000E-01,3.8846282E+00,3.5109696E+00
3.0600000E-01,3.8906401E+00,3.4713356E+00
3.0700000E-01,3.8963180E+00,3.4324661E+00
3.0800000E-01,3.8992507E+00,3.3998813E+00
3.0900000E-01,3.9021833E+00,3.3672965E+00
3.1000000E-01,3.9050921E+00,3.3349363E+00
3.1100000E-01,3.9074225E+00,3.3080307E+00
3.1200000E-01,3.9097529E+00,3.2811251E+00
3.1300000E-01,3.9120833E+00,3.2542195E+00
3.1400000E-01,3.9144138E+00,3.2273139E+00
3.1500000E-01,3.9163958E+00,3.2018764E+00
3.1600000E-01,3.9176351E+00,3.1795681E+00
3.1700000E-01,3.9188745E+00,3.1572597E+00
3.1800000E-01,3.9201849E+00,3.1350958E+00
3.1900000E-01,3.9221980E+00,3.1143603E+00
3.2000000E-01,3.9242112E+00,3.0936247E+00
3.2100000E-01,3.9262244E+00,3.0728892E+00
3.2200000E-01,3.9282375E+00,3.0521536E+00
3.2300000E-01,3.9302198E+00,3.0322414E+00
3.2400000E-01,3.9319852E+00,3.0181184E+00
3.2500000E-01,3.9337506E+00,3.0039953E+00
3.2600000E-01,3.9355160E+00,2.9898722E+00
3.2700000E-01,3.9378027E+00,2.9753227E+00
3.2800000E-01,3.9402863E+00,2.9606122E+00
3.2900000E-01,3.9427699E+00,2.9459016E+00
3.3000000E-01,3.9452535E+00,2.9311911E+00
3.3100000E-01,3.9477370E+00,2.9164806E+00
3.3200000E-01,3.9502342E+00,2.9026917E+00
3.3300000E-01,3.9527455E+00,2.8898564E+00
3.3400000E-01,3.9552567E+00,2.8770212E+00
3.3500000E-01,3.9577680E+00,2.8641859E+00
3.3600000E-01,3.9606291E+00,2.8524837E+00
3.3700000E-01,3.9635258E+00,2.8408968E+00
3.3800000E-01,3.9664225E+00,2.8293100E+00
3.3900000E-01,3.9693192E+00,2.8177231E+00
3.4000000E-01,3.9722159E+00,2.8061363E+00
3.4100000E-01,3.9751164E+00,2.7949404E+00
3.4200000E-01,3.9780229E+00,2.7843713E+00
3.4300000E-01,3.9809294E+00,2.7738022E+00
3.4400000E-01,3.9838359E+00,2.7632331E+00
3.4500000E-01,3.9870540E+00,2.7531462E+00
3.4600000E-01,3.9904802E+00,2.7433814E+00
3.4700000E-01,3.9939065E+00,2.7336166E+00
3.4800000E-01,3.9973327E+00,2.7238518E+00
3.4900000E-01,4.0007590E+00,2.7140870E+00
3.5000000E-01,4.0041852E+00,2.7043222E+00
3.5100000E-01,4.0078563E+00,2.6953354E+00
3.5200000E-01,4.0116037E+00,2.6865913E+00
3.5300000E-01,4.0153512E+00,2.6778473E+00
3.5400000E-01,4.0190986E+00,2.6691032E+00
3.5500000E-01,4.0234417E+00,2.6606082E+00
3.5600000E-01,4.0279735E+00,2.6521921E+00
3.5700000E-01,4.0325053E+00,2.6437760E+00
3.5800000E-01,4.0370370E+00,2.6353598E+00
3.5900000E-01,4.0415688E+00,2.6269437E+00
3.6000000E-01,4.0461005E+00,2.6185276E+00
3.6100000E-01,4.0510137E+00,2.6100685E+00
3.6200000E-01,4.0562021E+00,2.6015784E+00
3.6300000E-01,4.0613905E+00,2.5930882E+00
3.6400000E-01,4.0665789E+00,2.5845981E+00
3.6500000E-01,4.0718719E+00,2.5757761E+00
3.6600000E-01,4.0773675E+00,2.5663116E+00
3.6700000E-01,4.0828630E+00,2.5568470E+00
3.6800000E-01,4.0883586E+00,2.5473825E+00
3.6900000E-01,4.0938541E+00,2.5379179E+00
3.7000000E-01,4.0993496E+00,2.5284534E+00
3.7100000E-01,4.1048452E+00,2.5189888E+00
3.7200000E-01,4.1098620E+00,2.5085739E+00
3.7300000E-01,4.1147514E+00,2.4979061E+00
3.7400000E-01,4.1196408E+00,2.4872383E+00
3.7500000E-01,4.1245302E+00,2.4765705E+00
3.7600000E-01,4.1289181E+00,2.4657867E+00
3.7700000E-01,4.1320801E+00,2.4547197E+00
3.7800000E-01,4.1352421E+00,2.4436526E+00
3.7900000E-01,4.1384041E+00,2.4325856E+00
3.8000000E-01,4.1415661E+00,2.4215185E+00
3.8100000E-01,4.1447282E+00,2.4104514E+00
3.8200000E-01,4.1478902E+00,2.3993844E+00
3.8300000E-01,4.1504870E+00,2.3883825E+00
3.8400000E-01,4.1519504E+00,2.3775115E+00
3.8500000E-01,4.1534138E+00,2.3666404E+00
3.8600000E-01,4.1548772E+00,2.3557694E+00
3.8700000E-01,4.1563406E+00,2.3448983E+00
3.8800000E-01,4.1567032E+00,2.3342116E+00
3.8900000E-01,4.1561629E+00,2.3236760E+00
3.9000000E-01,4.1556226E+00,2.3131405E+00
3.9100000E-01,4.1550823E+00,2.3026050E+00
3.9200000E-01,4.1545420E+00,2.2920694E+00
3.9300000E-01,4.1540017E+00,2.2815339E+00
3.9400000E-01,4.1534615E+00,2.2709983E+00
3.9500000E-01,4.1526563E+00,2.2606540E+00
3.9600000E-01,4.1503010E+00,2.2514291E+00
3.9700000E-01,4.1479457E+00,2.2422042E+00
3.9800000E-01,4.1455904E+00,2.2329793E+00
3.9900000E-01,4.1432351E+00,2.2237543E+00
4.0000000E-01,4.1407803E+00,2.2146704E+00
4.0100000E-01,4.1364731E+00,2.2082096E+00
4.0200000E-01,4.1321658E+00,2.2017488E+00
4.0300000E-01,4.1278586E+00,2.1952879E+00
4.0400000E-01,4.1235514E+00,2.1888271E+00
4.0500000E-01,4.1192442E+00,2.1823663E+00
4.0600000E-01,4.1149370E+00,2.1759055E+00
4.0700000E-01,4.1106298E+00,2.1694446E+00
4.0800000E-01,4.1062769E+00,2.1634505E+00
4.0900000E-01,4.1016795E+00,2.1599565E+00
4.1000000E-01,4.0970822E+00,2.1564625E+00
4.1100000E-01,4.0924848E+00,2.1529685E+00
4.1200000E-01,4.0878875E+00,2.1494745E+00
4.1300000E-01,4.0832901E+00,2.1459805E+00
4.1400000E-01,4.0794412E+00,2.1441471E+00
4.1500000E-01,4.0758843E+00,2.1429614E+00
4.1600000E-01,4.0723274E+00,2.1417758E+00
4.1700000E-01,4.0687705E+00,2.1405902E+00
4.1800000E-01,4.0652136E+00,2.1394045E+00
4.1900000E-01,4.0616567E+00,2.1382189E+00
4.2000000E-01,4.0580998E+00,2.1370333E+00
4.2100000E-01,4.0545429E+00,2.1358476E+00
4.2200000E-01,4.0512648E+00,2.1352451E+00
4.2300000E-01,4.0486861E+00,2.1361046E+00
4.2400000E-01,4.0461073E+00,2.1369642E+00
4.2500000E-01,4.0435286E+00,2.1378238E+00
4.2600000E-01,4.0409498E+00,2.1386834E+00
4.2700000E-01,4.0383711E+00,2.1395430E+00
4.2800000E-01,4.0366371E+00,2.1411407E+00
4.2900000E-01,4.0358621E+00,2.1435764E+00
4.3000000E-01,4.0350871E+00,2.1460121E+00
4.3100000E-01,4.0343121E+00,2.1484478E+00
4.3200000E-01,4.0335371E+00,2.1508834E+00
4.3300000E-01,4.0327621E+00,2.1533191E+00
4.3400000E-01,4.0319871E+00,2.1557548E+00
4.3500000E-01,4.0312121E+00,2.1581905E+00
4.3600000E-01,4.0304371E+00,2.1606262E+00
4.3700000E-01,4.0303495E+00,2.1633282E+00
4.3800000E-01,4.0311512E+00,2.1663747E+00
4.3900000E-01,4.0319530E+00,2.1694212E+00
4.4000000E-01,4.0327547E+00,2.1724677E+00
4.4100000E-01,4.0335564E+00,2.1755142E+00
4.4200000E-01,4.0343581E+00,2.1785608E+00
4.4300000E-01,4.0354728E+00,2.1816990E+00
4.4400000E-01,4.0378449E+00,2.1852054E+00
4.4500000E-01,4.0402169E+00,2.1887119E+00
4.4600000E-01,4.0425889E+00,2.1922184E+00
4.4700000E-01,4.0449609E+00,2.1957248E+00
4.4800000E-01,4.0473329E+00,2.1992313E+00
4.4900000E-01,4.0497050E+00,2.2027378E+00
4.5000000E-01,4.0520770E+00,2.2062442E+00
4.5100000E-01,4.0544490E+00,2.2097507E+00
4.5200000E-01,4.0568210E+00,2.2132572E+00
4.5300000E-01,4.0598007E+00,2.2168757E+00
4.5400000E-01,4.0633808E+00,2.2206050E+00
4.5500000E-01,4.0669610E+00,2.2243343E+00
4.5600000E-01,4.0705411E+00,2.2280637E+00
4.5700000E-01,4.0741212E+00,2.2317930E+00
4.5800000E-01,4.0777014E+00,2.2355223E+00
4.5900000E-01,4.0812815E+00,2.2392516E+00
4.6000000E-01,4.0859060E+00,2.2431401E+00
4.6100000E-01,4.0907928E+00,2.2470687E+00
4.6200000E-01,4.0956795E+00,2.2509973E+00
4.6300000E-01,4.1005663E+00,2.2549258E+00
4.6400000E-01,4.1054530E+00,2.2588544E+00
4.6500000E-01,4.1103398E+00,2.2627830E+00
4.6600000E-01,4.1152266E+00,2.2667115E+00
4.6700000E-01,4.1201133E+00,2.2706401E+00
4.6800000E-01,4.1250001E+00,2.2745687E+00
4.6900000E-01,4.1298868E+00,2.2784972E+00
4.7000000E-01,4.1353609E+00,2.2824065E+00
4.7100000E-01,4.1418659E+00,2.2862818E+00
4.7200000E-01,4.1483709E+00,2.2901572E+00
4.7300000E-01,4.1548760E+00,2.2940325E+00
4.7400000E-01,4.1613810E+00,2.2979078E+00
4.7500000E-01,4.1678860E+00,2.3017832E+00
4.7600000E-01,4.1743910E+00,2.3056585E+00
4.7700000E-01,4.1810639E+00,2.3095381E+00
4.7800000E-01,4.1887873E+00,2.3134441E+00
4.7900000E-01,4.1965107E+00,2.3173502E+00
4.8000000E-01,4.2042341E+00,2.3212563E+00
4.8100000E-01,4.2119575E+00,2.3251624E+00
4.8200000E-01,4.2196809E+00,2.3290685E+00
4.8300000E-01,4.2274043E+00,2.3329746E+00
4.8400000E-01,4.2351277E+00,2.3368807E+00
4.8500000E-01,4.2428511E+00,2.3407868E+00
4.8600000E-01,4.2505745E+00,2.3446929E+00
4.8700000E-01,4.2582979E+00,2.3485989E+00
4.8800000E-01,4.2660213E+00,2.3525050E+00
4.8900000E-01,4.2751626E+00,2.3564663E+00
4.9000000E-01,4.2845095E+00,2.3604355E+00
4.9100000E-01,4.2938565E+00,2.3644048E+00
4.9200000E-01,4.3032034E+00,2.3683741E+00
4.9300000E-01,4.3125504E+00,2.3723433E+00
4.9400000E-01,4.3218973E+00,2.3763126E+00
4.9500000E-01,4.3312443E+00,2.3802818E+00
4.9600000E-01,4.3407366E+00,2.3842334E+00
4.9700000E-01,4.3523805E+00,2.3879234E+00
4.9800000E-01,4.3640245E+00,2.3916134E+00
4.9900000E-01,4.3756684E+00,2.3953034E+00
5.0000000E-01,4.3873124E+00,2.3989934E+00
5.0100000E-01,4.3989564E+00,2.4026834E+00
5.0200000E-01,4.4106003E+00,2.4063733E+00
5.0300000E-01,4.4222443E+00,2.4100633E+00
5.0400000E-01,4.4338882E+00,2.4137533E+00
5.0500000E-01,4.4455322E+00,2.4174433E+00
5.0600000E-01,4.4571761E+00,2.4211333E+00
5.0700000E-01,4.4688201E+00,2.4248233E+00
5.0800000E-01,4.4804641E+00,2.4285133E+00
5.0900000E-01,4.4951205E+00,2.4316651E+00
5.1000000E-01,4.5102347E+00,2.4347352E+00
5.1100000E-01,4.5253489E+00,2.4378052E+00
5.1200000E-01,4.5404630E+00,2.4408753E+00
5.1300000E-01,4.5555772E+00,2.4439454E+00
5.1400000E-01,4.5706914E+00,2.4470154E+00
5.1500000E-01,4.5858056E+00,2.4500855E+00
5.1600000E-01,4.6009198E+00,2.4531556E+00
5.1700000E-01,4.6182279E+00,2.4543671E+00
5.1800000E-01,4.6388377E+00,2.4527817E+00
5.1900000E-01,4.6594474E+00,2.4511964E+00
5.2000000E-01,4.6800571E+00,2.4496110E+00
5.2100000E-01,4.7006668E+00,2.4480256E+00
5.2200000E-01,4.7212766E+00,2.4464403E+00
5.2300000E-01,4.7418863E+00,2.4448549E+00
5.2400000E-01,4.7624960E+00,2.4432695E+00
5.2500000E-01,4.7831057E+00,2.4416842E+00
5.2600000E-01,4.8037155E+00,2.4400988E+00
5.2700000E-01,4.8243252E+00,2.4385134E+00
5.2800000E-01,4.8449349E+00,2.4369281E+00
5.2900000E-01,4.8655446E+00,2.4353427E+00
5.3000000E-01,4.8859731E+00,2.4320733E+00
5.3100000E-01,4.9053985E+00,2.4194848E+00
5.3200000E-01,4.9248239E+00,2.4068962E+00
5.3300000E-01,4.9442494E+00,2.3943077E+00
5.3400000E-01,4.9636748E+00,2.3817191E+00
5.3500000E-01,4.9831002E+00,2.3691306E+00
5.3600000E-01,5.0025256E+00,2.3565420E+00
5.3700000E-01,5.0219511E+00,2.3439535E+00
5.3800000E-01,5.0413765E+00,2.3313650E+00
5.3900000E-01,5.0608019E+00,2.3187764E+00
5.4000000E-01,5.0708379E+00,2.3054580E+00
5.4100000E-01,5.0802567E+00,2.2920915E+00
5.4200000E-01,5.0896756E+00,2.2787251E+00
5.4300000E-01,5.0990944E+00,2.2653587E+00
5.4400000E-01,5.1085133E+00,2.2519922E+00
5.4500000E-01,5.1179321E+00,2.2386258E+00
5.4600000E-01,5.1273509E+00,2.2252594E+00
5.4700000E-01,5.1367698E+00,2.2118929E+00
5.4800000E-01,5.1461886E+00,2.1985265E+00
5.4900000E-01,5.1556074E+00,2.1851600E+00
5.5000000E-01,5.1650263E+00,2.1717936E+00
5.5100000E-01,5.1744451E+00,2.1584272E+00
5.5200000E-01,5.1838639E+00,2.1450607E+00
5.5300000E-01,5.1932828E+00,2.1316943E+00
5.5400000E-01,5.2022161E+00,2.1212303E+00
5.5500000E-01,5.2106624E+00,2.1136784E+00
5.5600000E-01,5.2191086E+00,2.1061264E+00
5.5700000E-01,5.2275548E+00,2.0985745E+00
5.5800000E-01,5.2360011E+00,2.0910226E+00
5.5900000E-01,5.2444473E+00,2.0834706E+00
5.6000000E-01,5.2528935E+00,2.0759187E+00
5.6100000E-01,5.2613398E+00,2.0683668E+00
5.6200000E-01,5.2697860E+00,2.0608148E+00
5.6300000E-01,5.2782323E+00,2.0532629E+00
5.6400000E-01,5.2904696E+00,2.0455546E+00
5.6500000E-01,5.3076205E+00,2.0376437E+00
5.6600000E-01,5.3247715E+00,2.0297327E+00
5.6700000E-01,5.3419224E+00,2.0218218E+00
5.6800000E-01,5.3590734E+00,2.0139108E+00
5.6900000E-01,5.3762243E+00,2.0059998E+00
5.7000000E-01,5.3933753E+00,1.9980889E+00
5.7100000E-01,5.4105262E+00,1.9901779E+00
5.7200000E-01,5.4276772E+00,1.9822670E+00
5.7300000E-01,5.4448281E+00,1.9743560E+00
5.7400000E-01,5.4619791E+00,1.9664451E+00
5.7500000E-01,5.4791300E+00,1.9585341E+00
5.7600000E-01,5.4962810E+00,1.9506232E+00
5.7700000E-01,5.5134319E+00,1.9427122E+00
5.7800000E-01,5.5305829E+00,1.9348013E+00
5.7900000E-01,5.5477338E+00,1.9268903E+00
5.8000000E-01,5.5651568E+00,1.9073223E+00
5.8100000E-01,5.5827364E+00,1.8810435E+00
5.8200000E-01,5.6003160E+00,1.8547648E+00
5.8300000E-01,5.6178956E+00,1.8284860E+00
5.8400000E-01,5.6354751E+00,1.8022073E+00
5.8500000E-01,5.6530547E+00,1.7759285E+00
5.8600000E-01,5.6706343E+00,1.7496498E+00
5.8700000E-01,5.6882139E+00,1.7233710E+00
5.8800000E-01,5.7057935E+00,1.6970923E+00
5.8900000E-01,5.7233730E+00,1.6708135E+00
5.9000000E-01,5.7409526E+00,1.6445347E+00
5.9100000E-01,5.7543240E+00,1.6173011E+00
5.9200000E-01,5.7648795E+00,1.5894285E+00
5.9300000E-01,5.7754351E+00,1.5615559E+00
5.9400000E-01,5.7859906E+00,1.5336833E+00
5.9500000E-01,5.7965461E+00,1.5058108E+00
5.9600000E-01,5.8071017E+00,1.4779382E+00
5.9700000E-01,5.8176572E+00,1.4500656E+00
5.9800000E-01,5.8282128E+00,1.4221930E+00
5.9900000E-01,5.8387683E+00,1.3943204E+00
6.0000000E-01,5.8493238E+00,1.3664478E+00
6.0100000E-01,5.8598794E+00,1.3385752E+00
6.0200000E-01,5.8704349E+00,1.3107026E+00
6.0300000E-01,5.8809905E+00,1.2828301E+00
6.0400000E-01,5.8915460E+00,1.2549575E+00
6.0500000E-01,5.8871063E+00,1.2270849E+00
6.0600000E-01,5.8223445E+00,1.1992123E+00
6.0700000E-01,5.7575827E+00,1.1713397E+00
6.0800000E-01,5.7056861E+00,1.1458157E+00
6.0900000E-01,5.6958139E+00,1.1279634E+00
6.1000000E-01,5.6859417E+00,1.1101112E+00
6.1100000E-01,5.6760694E+00,1.0922589E+00
6.1200000E-01,5.6661972E+00,1.0744066E+00
6.1300000E-01,5.6563250E+00,1.0565543E+00
6.1400000E-01,5.6464528E+00,1.0387021E+00
6.1500000E-01,5.6365805E+00,1.0208498E+00
6.1600000E-01,5.6267083E+00,1.0029975E+00
6.1700000E-01,5.6168361E+00,9.8514523E-01
6.1800000E-01,5.6069638E+00,9.6729295E-01
6.1900000E-01,5.5970916E+00,9.4944067E-01
6.2000000E-01,5.5875622E+00,9.3164197E-01
6.2100000E-01,5.5820261E+00,9.1446720E-01
6.2200000E-01,5.5764899E+00,8.9729243E-01
6.2300000E-01,5.5709537E+00,8.8011765E-01
6.2400000E-01,5.5654175E+00,8.6294288E-01
6.2500000E-01,5.5598813E+00,8.4576811E-01
6.2600000E-01,5.5543451E+00,8.2859334E-01
6.2700000E-01,5.5488089E+00,8.1141857E-01
6.2800000E-01,5.5432727E+00,7.9424380E-01
6.2900000E-01,5.5377365E+00,7.7706903E-01
6.3000000E-01,5.5322003E+00,7.5989426E-01
6.3100000E-01,5.5266642E+00,7.4271949E-01
6.3200000E-01,5.5211280E+00,7.2554472E-01
6.3300000E-01,5.5155918E+00,7.0836994E-01
6.3400000E-01,5.5100556E+00,6.9119517E-01
6.3500000E-01,5.5045194E+00,6.7402040E-01
6.3600000E-01,5.4986828E+00,6.5868279E-01
6.3700000E-01,5.4915109E+00,6.5151091E-01
6.3800000E-01,5.4843390E+00,6.4433903E-01
6.3900000E-01,5.4771671E+00,6.3716714E-01
6.4000000E-01,5.4699953E+00,6.2999526E-01
6.4100000E-01,5.4628234E+00,6.2282338E-01
6.4200000E-01,5.4556515E+00,6.1565150E-01
6.4300000E-01,5.4484796E+00,6.0847961E-01
6.4400000E-01,5.4413077E+00,6.0130773E-01
6.4500000E-01,5.4341358E+00,5.9413585E-01
6.4600000E-01,5.4269640E+00,5.8696397E-01
6.4700000E-01,5.4197921E+00,5.7979208E-01
6.4800000E-01,5.4126202E+00,5.7262020E-01
6.4900000E-01,5.4054483E+00,5.6544832E-01
6.5000000E-01,5.3982764E+00,5.5827644E-01
6.5100000E-01,5.3911046E+00,5.5110456E-01
6.5200000E-01,5.3839327E+00,5.4393267E-01
6.5300000E-01,5.3756464E+00,5.3993632E-01
6.5400000E-01,5.3660073E+00,5.3979534E-01
6.5500000E-01,5.3563682E+00,5.3965435E-01
6.5600000E-01,5.3467290E+00,5.3951337E-01
6.5700000E-01,5.3370899E+00,5.3937238E-01
6.5800000E-01,5.3274508E+00,5.3923139E-01
6.5900000E-01,5.3178117E+00,5.3909041E-01
6.6000000E-01,5.3081725E+00,5.3894942E-01
6.6100000E-01,5.2985334E+00,5.3880844E-01
6.6200000E-01,5.2888943E+00,5.3866745E-01
6.6300000E-01,5.2792551E+00,5.3852647E-01
6.6400000E-01,5.2696160E+00,5.3838548E-01
6.6500000E-01,5.2599769E+00,5.3824449E-01
6.6600000E-01,5.2503377E+00,5.3810351E-01
6.6700000E-01,5.2406986E+00,5.3796252E-01
6.6800000E-01,5.2310595E+00,5.3782154E-01
6.6900000E-01,5.2214203E+00,5.3768055E-01
6.7000000E-01,5.2117812E+00,5.3753957E-01
6.7100000E-01,5.1970186E+00,5.3739858E-01
6.7200000E-01,5.1810946E+00,5.3725759E-01
6.7300000E-01,5.1651707E+00,5.3711661E-01
6.7400000E-01,5.1510185E+00,5.3657276E-01
6.7500000E-01,5.1453420E+00,5.3410180E-01
6.7600000E-01,5.1396654E+00,5.3163084E-01
6.7700000E-01,5.1339889E+00,5.2915988E-01
6.7800000E-01,5.1283124E+00,5.2668892E-01
6.7900000E-01,5.1226359E+00,5.2421796E-01
6.8000000E-01,5.1169593E+00,5.2174700E-01
6.8100000E-01,5.1112828E+00,5.1927604E-01
6.8200000E-01,5.1056063E+00,5.1680508E-01
6.8300000E-01,5.0999297E+00,5.1433412E-01
6.8400000E-01,5.0942532E+00,5.1186316E-01
6.8500000E-01,5.0885767E+00,5.0939220E-01
6.8600000E-01,5.0829001E+00,5.0692124E-01
6.8700000E-01,5.0772236E+00,5.0445028E-01
